# N   Total_Energy(eV)   Energy_per_Atom(eV/atom)

30  -78.37491948   -2.6124973160000002
31  -81.51218555   -2.6294253403225807
32  -85.12245892   -2.66007684125
33  -87.44061642   -2.649715649090909
34  -90.45430015   -2.6604205926470588
35  -92.91522789   -2.6547207968571427
36  -95.83624446   -2.662117901666667
37  -98.39449964   -2.659310801081081
38  -101.31330569  -2.666139623421053
39  -104.14361169  -2.6703490176923075
40  -107.01447653  -2.6753619132499997
41  -109.80055078  -2.6780622141463413
42  -113.03169023  -2.6912307197619048
43  -115.73682570  -2.6915540860465117
44  -118.59721300  -2.6953912045454547
45  -121.54373193  -2.7009718206666666
